# Time [s], Mass [Kg]
1.000000000000000000e+00,1.168803071421440076e-01
2.000000000000000000e+00,1.168803071421440076e-01
3.000000000000000000e+00,1.168803071421440076e-01
4.000000000000000000e+00,1.168803071421439937e-01
5.000000000000000000e+00,1.168803071421439521e-01
6.000000000000000000e+00,1.168803071421437717e-01
7.000000000000000000e+00,1.168803071421432027e-01
8.000000000000000000e+00,1.168803071421415513e-01
9.000000000000000000e+00,1.168803071421371242e-01
1.000000000000000000e+01,1.168803071421263273e-01
1.100000000000000000e+01,1.168803071421017498e-01
1.200000000000000000e+01,1.168803071420490697e-01
1.300000000000000000e+01,1.168803071419420581e-01
1.400000000000000000e+01,1.168803071417345435e-01
1.500000000000000000e+01,1.168803071413484912e-01
1.600000000000000000e+01,1.168803071406563227e-01
1.700000000000000000e+01,1.168803071394557830e-01
1.800000000000000000e+01,1.168803071374349134e-01
1.900000000000000000e+01,1.168803071341243255e-01
2.000000000000000000e+01,1.168803071288335022e-01
2.100000000000000000e+01,1.168803071205672950e-01
2.200000000000000000e+01,1.168803071079183714e-01
2.300000000000000000e+01,1.168803070889302409e-01
2.400000000000000000e+01,1.168803070609263223e-01
2.500000000000000000e+01,1.168803070202985711e-01
2.600000000000000000e+01,1.168803069622483537e-01
2.700000000000000000e+01,1.168803068804748074e-01
2.800000000000000000e+01,1.168803067668024859e-01
2.900000000000000000e+01,1.168803066107371863e-01
3.000000000000000000e+01,1.168803063989487662e-01
3.100000000000000000e+01,1.168803061146698047e-01
3.200000000000000000e+01,1.168803057369933174e-01
3.300000000000000000e+01,1.168803052400772952e-01
3.400000000000000000e+01,1.168803045922397477e-01
3.500000000000000000e+01,1.168803037549157459e-01
3.600000000000000000e+01,1.168803026815112694e-01
3.700000000000000000e+01,1.168803013161238830e-01
3.800000000000000000e+01,1.168802995920758814e-01
3.900000000000000000e+01,1.168802974303473213e-01
4.000000000000000000e+01,1.168802947378538709e-01
4.100000000000000000e+01,1.168802914054796749e-01
4.200000000000000000e+01,1.168802873060299785e-01
4.300000000000000000e+01,1.168802822920114726e-01
4.400000000000000000e+01,1.168802761930924777e-01
4.500000000000000000e+01,1.168802688135352208e-01
4.600000000000000000e+01,1.168802599294447714e-01
4.700000000000000000e+01,1.168802492856063219e-01
4.800000000000000000e+01,1.168802365923683195e-01
4.900000000000000000e+01,1.168802215223353203e-01
5.000000000000000000e+01,1.168802037064793214e-01
5.100000000000000000e+01,1.168801827305363250e-01
5.200000000000000000e+01,1.168801581312198246e-01
5.300000000000000000e+01,1.168801293915423256e-01
5.400000000000000000e+01,1.168800959367363307e-01
5.500000000000000000e+01,1.168800571300028235e-01
5.600000000000000000e+01,1.168800122670583252e-01
5.700000000000000000e+01,1.168799605716403234e-01
5.800000000000000000e+01,1.168799011908538271e-01
5.900000000000000000e+01,1.168798331889203262e-01
6.000000000000000000e+01,1.168797555423898293e-01
6.100000000000000000e+01,1.168796671352148320e-01
6.200000000000000000e+01,1.168795667517758263e-01
6.300000000000000000e+01,1.168794530718458291e-01
6.400000000000000000e+01,1.168793246654508261e-01
6.500000000000000000e+01,1.168791799848058199e-01
6.600000000000000000e+01,1.168790173596558207e-01
6.700000000000000000e+01,1.168788349925308223e-01
6.800000000000000000e+01,1.168786309494308229e-01
6.900000000000000000e+01,1.168784031555158281e-01
7.000000000000000000e+01,1.168781493907308233e-01
7.100000000000000000e+01,1.168778672796158269e-01
7.200000000000000000e+01,1.168775542875108292e-01
7.300000000000000000e+01,1.168772077167308243e-01
7.400000000000000000e+01,1.168768246955208256e-01
7.500000000000000000e+01,1.168764021751808324e-01
7.600000000000000000e+01,1.168759369271708259e-01
7.700000000000000000e+01,1.168754255315908319e-01
7.800000000000000000e+01,1.168748643751408300e-01
7.900000000000000000e+01,1.168742496491058241e-01
8.000000000000000000e+01,1.168735773360008307e-01
8.100000000000000000e+01,1.168728432105958226e-01
8.200000000000000000e+01,1.168720428409158324e-01
8.300000000000000000e+01,1.168711715724008310e-01
8.400000000000000000e+01,1.168702245312808197e-01
8.500000000000000000e+01,1.168691966278708194e-01
8.600000000000000000e+01,1.168680825398208251e-01
8.700000000000000000e+01,1.168668767180208318e-01
8.800000000000000000e+01,1.168655733922208256e-01
8.900000000000000000e+01,1.168641665534708302e-01
9.000000000000000000e+01,1.168626499632708232e-01
9.100000000000000000e+01,1.168610171622708194e-01
9.200000000000000000e+01,1.168592614528708301e-01
9.300000000000000000e+01,1.168573759106208282e-01
9.400000000000000000e+01,1.168553533953708284e-01
9.500000000000000000e+01,1.168531865301708217e-01
9.600000000000000000e+01,1.168508677206208241e-01
9.700000000000000000e+01,1.168483891736208230e-01
9.800000000000000000e+01,1.168457428706708295e-01
9.900000000000000000e+01,1.168429205920208241e-01
1.000000000000000000e+02,1.168399139397708203e-01
1.010000000000000000e+02,1.168367143100208227e-01
1.020000000000000000e+02,1.168333129212208304e-01
1.030000000000000000e+02,1.168297008409708293e-01
1.040000000000000000e+02,1.168258689568208303e-01
1.050000000000000000e+02,1.168218080094708261e-01
1.060000000000000000e+02,1.168175086241208249e-01
1.070000000000000000e+02,1.168129612815208274e-01
1.080000000000000000e+02,1.168081563530208311e-01
1.090000000000000000e+02,1.168030841334708331e-01
1.100000000000000000e+02,1.167977348043208324e-01
1.110000000000000000e+02,1.167920984818208302e-01
1.120000000000000000e+02,1.167861652614708284e-01
1.130000000000000000e+02,1.167799251684208256e-01
1.140000000000000000e+02,1.167733682102708309e-01
1.150000000000000000e+02,1.167664844254208273e-01
1.160000000000000000e+02,1.167592638301208213e-01
1.170000000000000000e+02,1.167516964734708201e-01
1.180000000000000000e+02,1.167437724872208288e-01
1.190000000000000000e+02,1.167354820291708201e-01
1.200000000000000000e+02,1.167268153410708220e-01
1.210000000000000000e+02,1.167177628003708278e-01
1.220000000000000000e+02,1.167083148625708278e-01
1.230000000000000000e+02,1.166984621161708258e-01
1.240000000000000000e+02,1.166881953301708297e-01
1.250000000000000000e+02,1.166775053831708292e-01
1.260000000000000000e+02,1.166663833336708256e-01
1.270000000000000000e+02,1.166548204806708289e-01
1.280000000000000000e+02,1.166428082706708197e-01
1.290000000000000000e+02,1.166303383686708300e-01
1.300000000000000000e+02,1.166174027201708208e-01
1.310000000000000000e+02,1.166039934516708287e-01
1.320000000000000000e+02,1.165901029401708311e-01
1.330000000000000000e+02,1.165757238711708221e-01
1.340000000000000000e+02,1.165608491351708270e-01
1.350000000000000000e+02,1.165454718971708215e-01
1.360000000000000000e+02,1.165295856521708223e-01
1.370000000000000000e+02,1.165131841221708209e-01
1.380000000000000000e+02,1.164962613166708322e-01
1.390000000000000000e+02,1.164788115806708324e-01
1.400000000000000000e+02,1.164608294756708240e-01
1.410000000000000000e+02,1.164423098581708199e-01
1.420000000000000000e+02,1.164232479431708267e-01
1.430000000000000000e+02,1.164036391596708214e-01
1.440000000000000000e+02,1.163834792281708275e-01
1.450000000000000000e+02,1.163627642226708198e-01
1.460000000000000000e+02,1.163414904246708320e-01
1.470000000000000000e+02,1.163196543961708268e-01
1.480000000000000000e+02,1.162972530371708252e-01
1.490000000000000000e+02,1.162742834411708281e-01
1.500000000000000000e+02,1.162507429651708224e-01
1.510000000000000000e+02,1.162266292856708322e-01
1.520000000000000000e+02,1.162019402616708275e-01
1.530000000000000000e+02,1.161766739941708232e-01
1.540000000000000000e+02,1.161508288721708332e-01
1.550000000000000000e+02,1.161244034241708245e-01
1.560000000000000000e+02,1.160973964001708325e-01
1.570000000000000000e+02,1.160698068366708274e-01
1.580000000000000000e+02,1.160416338846708278e-01
1.590000000000000000e+02,1.160128768901708268e-01
1.600000000000000000e+02,1.159835354576708305e-01
1.610000000000000000e+02,1.159536092851708305e-01
1.620000000000000000e+02,1.159230982386708214e-01
1.630000000000000000e+02,1.158920024106708246e-01
1.640000000000000000e+02,1.158603219641708287e-01
1.650000000000000000e+02,1.158280572041708312e-01
1.660000000000000000e+02,1.157952086356708321e-01
1.670000000000000000e+02,1.157617768191708252e-01
1.680000000000000000e+02,1.157277624316708220e-01
1.690000000000000000e+02,1.156931663151708201e-01
1.700000000000000000e+02,1.156579893261708292e-01
1.710000000000000000e+02,1.156222324196708312e-01
1.720000000000000000e+02,1.155858967151708327e-01
1.730000000000000000e+02,1.155489833271708261e-01
1.740000000000000000e+02,1.155114934481708266e-01
1.750000000000000000e+02,1.154734284111708226e-01
1.760000000000000000e+02,1.154347895311708255e-01
1.770000000000000000e+02,1.153955781821708326e-01
1.780000000000000000e+02,1.153557958551708201e-01
1.790000000000000000e+02,1.153154440101708256e-01
1.800000000000000000e+02,1.152745241501708234e-01
1.810000000000000000e+02,1.152330378776708214e-01
1.820000000000000000e+02,1.151909867596708215e-01
1.830000000000000000e+02,1.151483723911708307e-01
1.840000000000000000e+02,1.151051964426708235e-01
1.850000000000000000e+02,1.150614605216708219e-01
1.860000000000000000e+02,1.150171662571708303e-01
1.870000000000000000e+02,1.149723153626708294e-01
1.880000000000000000e+02,1.149269094801708274e-01
1.890000000000000000e+02,1.148809502621708223e-01
1.900000000000000000e+02,1.148344394331708290e-01
1.910000000000000000e+02,1.147873786441708233e-01
1.920000000000000000e+02,1.147397695481708196e-01
1.930000000000000000e+02,1.146916138566708293e-01
1.940000000000000000e+02,1.146429132041708321e-01
1.950000000000000000e+02,1.145936692201708212e-01
1.960000000000000000e+02,1.145438835841708219e-01
1.970000000000000000e+02,1.144935579046708202e-01
1.980000000000000000e+02,1.144426937786708204e-01
1.990000000000000000e+02,1.143912928371708243e-01
2.000000000000000000e+02,1.143393566216708290e-01
2.010000000000000000e+02,1.142868866636708308e-01
2.020000000000000000e+02,1.142338845431708216e-01
2.030000000000000000e+02,1.141803517496708248e-01
2.040000000000000000e+02,1.141262897581708236e-01
2.050000000000000000e+02,1.140717000861708325e-01
2.060000000000000000e+02,1.140165841636708310e-01
2.070000000000000000e+02,1.139609434031708252e-01
2.080000000000000000e+02,1.139047792526708264e-01
2.090000000000000000e+02,1.138480930741708197e-01
2.100000000000000000e+02,1.137908862101708329e-01
2.110000000000000000e+02,1.137331600346708216e-01
2.120000000000000000e+02,1.136749158446708208e-01
2.130000000000000000e+02,1.136161549151708250e-01
2.140000000000000000e+02,1.135568785416708193e-01
2.150000000000000000e+02,1.134970879291708201e-01
2.160000000000000000e+02,1.134367842651708286e-01
2.170000000000000000e+02,1.133759687741708322e-01
2.180000000000000000e+02,1.133146425911708277e-01
2.190000000000000000e+02,1.132528068321708298e-01
2.200000000000000000e+02,1.131904626466708197e-01
2.210000000000000000e+02,1.131276110996708301e-01
2.220000000000000000e+02,1.130642532366708253e-01
2.230000000000000000e+02,1.130003901311708303e-01
2.240000000000000000e+02,1.129360227756708301e-01
2.250000000000000000e+02,1.128711521431708248e-01
2.260000000000000000e+02,1.128057792321708330e-01
2.270000000000000000e+02,1.127399049696708316e-01
2.280000000000000000e+02,1.126735302616708317e-01
2.290000000000000000e+02,1.126066560316708320e-01
2.300000000000000000e+02,1.125392831206708244e-01
2.310000000000000000e+02,1.124714123531708326e-01
2.320000000000000000e+02,1.124027926056708204e-01
2.330000000000000000e+02,1.123336278831708335e-01
2.340000000000000000e+02,1.122642768996708340e-01
2.350000000000000000e+02,1.121945999466708310e-01
2.360000000000000000e+02,1.121245300911708209e-01
2.370000000000000000e+02,1.120540280531708288e-01
2.380000000000000000e+02,1.119830687466708274e-01
2.390000000000000000e+02,1.119116356126708262e-01
2.400000000000000000e+02,1.118397174806708277e-01
2.410000000000000000e+02,1.117673067956708316e-01
2.420000000000000000e+02,1.116943984021708247e-01
2.430000000000000000e+02,1.116209888431708291e-01
2.440000000000000000e+02,1.115470758926708217e-01
2.450000000000000000e+02,1.114726581496708335e-01
2.460000000000000000e+02,1.113977348406708229e-01
2.470000000000000000e+02,1.113223056801708327e-01
2.480000000000000000e+02,1.112463706796708307e-01
2.490000000000000000e+02,1.111699300931708323e-01
2.500000000000000000e+02,1.110929843756708335e-01
2.510000000000000000e+02,1.110155340721708239e-01
2.520000000000000000e+02,1.109375798166708227e-01
2.530000000000000000e+02,1.108591223301708256e-01
2.540000000000000000e+02,1.107801623346708342e-01
2.550000000000000000e+02,1.107007005751708267e-01
2.560000000000000000e+02,1.106207378351708320e-01
2.570000000000000000e+02,1.105402748631708343e-01
2.580000000000000000e+02,1.104593124016708255e-01
2.590000000000000000e+02,1.103778512071708212e-01
2.600000000000000000e+02,1.102958919721708231e-01
2.610000000000000000e+02,1.102134353746708206e-01
2.620000000000000000e+02,1.101304821121708299e-01
2.630000000000000000e+02,1.100470328066708303e-01
2.640000000000000000e+02,1.099630880601708272e-01
2.650000000000000000e+02,1.098786484936708219e-01
2.660000000000000000e+02,1.097937146536708264e-01
2.670000000000000000e+02,1.097082870631708312e-01
2.680000000000000000e+02,1.096223662591708226e-01
2.690000000000000000e+02,1.095359527061708221e-01
2.700000000000000000e+02,1.094490468456708332e-01
2.710000000000000000e+02,1.093616491326708240e-01
2.720000000000000000e+02,1.092737599556708322e-01
2.730000000000000000e+02,1.091853796806708243e-01
2.740000000000000000e+02,1.090965086816708257e-01
2.750000000000000000e+02,1.090071472576708278e-01
2.760000000000000000e+02,1.089172956901708345e-01
2.770000000000000000e+02,1.088269542826708347e-01
2.780000000000000000e+02,1.087361232661708255e-01
2.790000000000000000e+02,1.086448028541708299e-01
2.800000000000000000e+02,1.085529932816708260e-01
2.810000000000000000e+02,1.084606947161708274e-01
2.820000000000000000e+02,1.083679073086708244e-01
2.830000000000000000e+02,1.082746312296708202e-01
2.840000000000000000e+02,1.081808665856708318e-01
2.850000000000000000e+02,1.080866134681708196e-01
2.860000000000000000e+02,1.079918719881708261e-01
2.870000000000000000e+02,1.078966422011708171e-01
2.880000000000000000e+02,1.078009241476708263e-01
2.890000000000000000e+02,1.077044695431708249e-01
2.900000000000000000e+02,1.076074823851708301e-01
2.910000000000000000e+02,1.075103146811708238e-01
2.920000000000000000e+02,1.074128210691708274e-01
2.930000000000000000e+02,1.073149313526708254e-01
2.940000000000000000e+02,1.072166046141708184e-01
2.950000000000000000e+02,1.071178149531708257e-01
2.960000000000000000e+02,1.070185454966708222e-01
2.970000000000000000e+02,1.069187850126708250e-01
2.980000000000000000e+02,1.068185259976708323e-01
2.990000000000000000e+02,1.067177633926708197e-01
3.000000000000000000e+02,1.066164938426708286e-01
3.010000000000000000e+02,1.065147151926708197e-01
3.020000000000000000e+02,1.064124260926708199e-01
3.030000000000000000e+02,1.063096257726708210e-01
3.040000000000000000e+02,1.062063138826708220e-01
3.050000000000000000e+02,1.061024903426708299e-01
3.060000000000000000e+02,1.059981552726708270e-01
3.070000000000000000e+02,1.058933089526708227e-01
3.080000000000000000e+02,1.057879517326708319e-01
3.090000000000000000e+02,1.056820840226708191e-01
3.100000000000000000e+02,1.055757062976708238e-01
3.110000000000000000e+02,1.054688190226708289e-01
3.120000000000000000e+02,1.053614226726708181e-01
3.130000000000000000e+02,1.052535177526708193e-01
3.140000000000000000e+02,1.051451047326708299e-01
3.150000000000000000e+02,1.050361840726708185e-01
3.160000000000000000e+02,1.049267562526708247e-01
3.170000000000000000e+02,1.048168217126708157e-01
3.180000000000000000e+02,1.047063808776708266e-01
3.190000000000000000e+02,1.045954341976708252e-01
3.200000000000000000e+02,1.044839820676708164e-01
3.210000000000000000e+02,1.043720248776708187e-01
3.220000000000000000e+02,1.042595630576708260e-01
3.230000000000000000e+02,1.041465969876708281e-01
3.240000000000000000e+02,1.040331270426708282e-01
3.250000000000000000e+02,1.039191536426708196e-01
3.260000000000000000e+02,1.038046771726708201e-01
3.270000000000000000e+02,1.036896980176708200e-01
3.280000000000000000e+02,1.035742166076708271e-01
3.290000000000000000e+02,1.034582333426708189e-01
3.300000000000000000e+02,1.033417486376708300e-01
3.310000000000000000e+02,1.032247629526708288e-01
3.320000000000000000e+02,1.031072767326708245e-01
3.330000000000000000e+02,1.029890802676708267e-01
3.340000000000000000e+02,1.028703597776708251e-01
3.350000000000000000e+02,1.027514163526708213e-01
3.360000000000000000e+02,1.026321129676708299e-01
3.370000000000000000e+02,1.025123849626708300e-01
3.380000000000000000e+02,1.023921958226708256e-01
3.390000000000000000e+02,1.022715232876708347e-01
3.400000000000000000e+02,1.021503536576708338e-01
3.410000000000000000e+02,1.020286784376708278e-01
3.420000000000000000e+02,1.019064925276708250e-01
3.430000000000000000e+02,1.017837930926708268e-01
3.440000000000000000e+02,1.016605787976708336e-01
3.450000000000000000e+02,1.015368493426708207e-01
3.460000000000000000e+02,1.014126051626708241e-01
3.470000000000000000e+02,1.012878471876708236e-01
3.480000000000000000e+02,1.011625767126708292e-01
3.490000000000000000e+02,1.010367953026708177e-01
3.500000000000000000e+02,1.009105046876708212e-01
3.510000000000000000e+02,1.007837067326708275e-01
3.520000000000000000e+02,1.006564034226708204e-01
3.530000000000000000e+02,1.005285968126708174e-01
3.540000000000000000e+02,1.004002890126708264e-01
3.550000000000000000e+02,1.002714821976708193e-01
3.560000000000000000e+02,1.001421785726708258e-01
3.570000000000000000e+02,1.000123803876708239e-01
3.580000000000000000e+02,9.988208994767082405e-02
3.590000000000000000e+02,9.975130956767082335e-02
3.600000000000000000e+02,9.962004160767082284e-02
3.610000000000000000e+02,9.948828848767082844e-02
3.620000000000000000e+02,9.935605264767082001e-02
3.630000000000000000e+02,9.922333656767082233e-02
3.640000000000000000e+02,9.909014279267082392e-02
3.650000000000000000e+02,9.895647388767081498e-02
3.660000000000000000e+02,9.882233246767081758e-02
3.670000000000000000e+02,9.868772121767081795e-02
3.680000000000000000e+02,9.855264284767081828e-02
3.690000000000000000e+02,9.841710013267082613e-02
3.700000000000000000e+02,9.828092022767082048e-02
3.710000000000000000e+02,9.814427198767082527e-02
3.720000000000000000e+02,9.800741148267082259e-02
3.730000000000000000e+02,9.787021455267082282e-02
3.740000000000000000e+02,9.773262507767083163e-02
3.750000000000000000e+02,9.759461330767082998e-02
3.760000000000000000e+02,9.745616266267081995e-02
3.770000000000000000e+02,9.731726434267082282e-02
3.780000000000000000e+02,9.717791425767081936e-02
3.790000000000000000e+02,9.703811133267081779e-02
3.800000000000000000e+02,9.689785643267082027e-02
3.810000000000000000e+02,9.675715172767082595e-02
3.820000000000000000e+02,9.661600027767081045e-02
3.830000000000000000e+02,9.647440571767082473e-02
3.840000000000000000e+02,9.633237208767081450e-02
3.850000000000000000e+02,9.618990371767081882e-02
3.860000000000000000e+02,9.604700512267082269e-02
3.870000000000000000e+02,9.590368094767082185e-02
3.880000000000000000e+02,9.575993593267081994e-02
3.890000000000000000e+02,9.561577487267082509e-02
3.900000000000000000e+02,9.547120260767082145e-02
3.910000000000000000e+02,9.532622401267082379e-02
3.920000000000000000e+02,9.518084396267081915e-02
3.930000000000000000e+02,9.503506735267082395e-02
3.940000000000000000e+02,9.488889910267081507e-02
3.950000000000000000e+02,9.474234411767082364e-02
3.960000000000000000e+02,9.459540730267082531e-02
3.970000000000000000e+02,9.444809358767082552e-02
3.980000000000000000e+02,9.430040788267082807e-02
3.990000000000000000e+02,9.415235509767082289e-02
