# Time [s], Mass [Kg]
1.000000000000000000e+00,1.168803071421440076e-01
2.000000000000000000e+00,1.168803071421440076e-01
3.000000000000000000e+00,1.168803071421440076e-01
4.000000000000000000e+00,1.168803071421440076e-01
5.000000000000000000e+00,1.168803071421439937e-01
6.000000000000000000e+00,1.168803071421439937e-01
7.000000000000000000e+00,1.168803071421439660e-01
8.000000000000000000e+00,1.168803071421438966e-01
9.000000000000000000e+00,1.168803071421437717e-01
1.000000000000000000e+01,1.168803071421435080e-01
1.100000000000000000e+01,1.168803071421430223e-01
1.200000000000000000e+01,1.168803071421421480e-01
1.300000000000000000e+01,1.168803071421406076e-01
1.400000000000000000e+01,1.168803071421379985e-01
1.500000000000000000e+01,1.168803071421336964e-01
1.600000000000000000e+01,1.168803071421267992e-01
1.700000000000000000e+01,1.168803071421159884e-01
1.800000000000000000e+01,1.168803071420994183e-01
1.900000000000000000e+01,1.168803071420744660e-01
2.000000000000000000e+01,1.168803071420376205e-01
2.100000000000000000e+01,1.168803071419840522e-01
2.200000000000000000e+01,1.168803071419073775e-01
2.300000000000000000e+01,1.168803071417991724e-01
2.400000000000000000e+01,1.168803071416484457e-01
2.500000000000000000e+01,1.168803071414410560e-01
2.600000000000000000e+01,1.168803071411589345e-01
2.700000000000000000e+01,1.168803071407792660e-01
2.800000000000000000e+01,1.168803071402734206e-01
2.900000000000000000e+01,1.168803071396058019e-01
3.000000000000000000e+01,1.168803071387324866e-01
3.100000000000000000e+01,1.168803071375996705e-01
3.200000000000000000e+01,1.168803071361418505e-01
3.300000000000000000e+01,1.168803071342798539e-01
3.400000000000000000e+01,1.168803071319185344e-01
3.500000000000000000e+01,1.168803071289441636e-01
3.600000000000000000e+01,1.168803071252215997e-01
3.700000000000000000e+01,1.168803071205911231e-01
3.800000000000000000e+01,1.168803071148647732e-01
3.900000000000000000e+01,1.168803071078224898e-01
4.000000000000000000e+01,1.168803070992078391e-01
4.100000000000000000e+01,1.168803070887231149e-01
4.200000000000000000e+01,1.168803070760242174e-01
4.300000000000000000e+01,1.168803070607150885e-01
4.400000000000000000e+01,1.168803070423413137e-01
4.500000000000000000e+01,1.168803070203836003e-01
4.600000000000000000e+01,1.168803069942505879e-01
4.700000000000000000e+01,1.168803069632708969e-01
4.800000000000000000e+01,1.168803069266848016e-01
4.900000000000000000e+01,1.168803068836354597e-01
5.000000000000000000e+01,1.168803068331587536e-01
5.100000000000000000e+01,1.168803067741733814e-01
5.200000000000000000e+01,1.168803067054702133e-01
5.300000000000000000e+01,1.168803066256998285e-01
5.400000000000000000e+01,1.168803065333606089e-01
5.500000000000000000e+01,1.168803064267862346e-01
5.600000000000000000e+01,1.168803063041305573e-01
5.700000000000000000e+01,1.168803061633537366e-01
5.800000000000000000e+01,1.168803060022075846e-01
5.900000000000000000e+01,1.168803058182175808e-01
6.000000000000000000e+01,1.168803056086669678e-01
6.100000000000000000e+01,1.168803053705799039e-01
6.200000000000000000e+01,1.168803051007005767e-01
6.300000000000000000e+01,1.168803047954748708e-01
6.400000000000000000e+01,1.168803044510313416e-01
6.500000000000000000e+01,1.168803040631562901e-01
6.600000000000000000e+01,1.168803036272740015e-01
6.700000000000000000e+01,1.168803031384260532e-01
6.800000000000000000e+01,1.168803025912418803e-01
6.900000000000000000e+01,1.168803019799171533e-01
7.000000000000000000e+01,1.168803012981910472e-01
7.100000000000000000e+01,1.168803005393126287e-01
7.200000000000000000e+01,1.168802996960171120e-01
7.300000000000000000e+01,1.168802987605012389e-01
7.400000000000000000e+01,1.168802977243848934e-01
7.500000000000000000e+01,1.168802965786856912e-01
7.600000000000000000e+01,1.168802953137925982e-01
7.700000000000000000e+01,1.168802939194230894e-01
7.800000000000000000e+01,1.168802923845954495e-01
7.900000000000000000e+01,1.168802906975998923e-01
8.000000000000000000e+01,1.168802888459484490e-01
8.100000000000000000e+01,1.168802868163482389e-01
8.200000000000000000e+01,1.168802845946737973e-01
8.300000000000000000e+01,1.168802821659072899e-01
8.400000000000000000e+01,1.168802795141116457e-01
8.500000000000000000e+01,1.168802766224018991e-01
8.600000000000000000e+01,1.168802734728781462e-01
8.700000000000000000e+01,1.168802700465978450e-01
8.800000000000000000e+01,1.168802663235461448e-01
8.900000000000000000e+01,1.168802622825607929e-01
9.000000000000000000e+01,1.168802579013043935e-01
9.100000000000000000e+01,1.168802531562345426e-01
9.200000000000000000e+01,1.168802480225217960e-01
9.300000000000000000e+01,1.168802424740197493e-01
9.400000000000000000e+01,1.168802364832330493e-01
9.500000000000000000e+01,1.168802300212198886e-01
9.600000000000000000e+01,1.168802230575705925e-01
9.700000000000000000e+01,1.168802155603832493e-01
9.800000000000000000e+01,1.168802074961461379e-01
9.900000000000000000e+01,1.168801988297187427e-01
1.000000000000000000e+02,1.168801895243090916e-01
1.010000000000000000e+02,1.168801795413434985e-01
1.020000000000000000e+02,1.168801688404484951e-01
1.030000000000000000e+02,1.168801573794289866e-01
1.040000000000000000e+02,1.168801451141244924e-01
1.050000000000000000e+02,1.168801319983934911e-01
1.060000000000000000e+02,1.168801179840939924e-01
1.070000000000000000e+02,1.168801030209294933e-01
1.080000000000000000e+02,1.168800870564309924e-01
1.090000000000000000e+02,1.168800700359349937e-01
1.100000000000000000e+02,1.168800519023974888e-01
1.110000000000000000e+02,1.168800325963999936e-01
1.120000000000000000e+02,1.168800120561494932e-01
1.130000000000000000e+02,1.168799902172514976e-01
1.140000000000000000e+02,1.168799670127234902e-01
1.150000000000000000e+02,1.168799423729994930e-01
1.160000000000000000e+02,1.168799162256819874e-01
1.170000000000000000e+02,1.168798884955599970e-01
1.180000000000000000e+02,1.168798591046164986e-01
1.190000000000000000e+02,1.168798279717574995e-01
1.200000000000000000e+02,1.168797950128374896e-01
1.210000000000000000e+02,1.168797601406744990e-01
1.220000000000000000e+02,1.168797232647639933e-01
1.230000000000000000e+02,1.168796842912984968e-01
1.240000000000000000e+02,1.168796431231784866e-01
1.250000000000000000e+02,1.168795996596694864e-01
1.260000000000000000e+02,1.168795537964724962e-01
1.270000000000000000e+02,1.168795054257829868e-01
1.280000000000000000e+02,1.168794544358694870e-01
1.290000000000000000e+02,1.168794007111599864e-01
1.300000000000000000e+02,1.168793441323109916e-01
1.310000000000000000e+02,1.168792845757534865e-01
1.320000000000000000e+02,1.168792219137879951e-01
1.330000000000000000e+02,1.168791560146584946e-01
1.340000000000000000e+02,1.168790867420639867e-01
1.350000000000000000e+02,1.168790139552684931e-01
1.360000000000000000e+02,1.168789375091889987e-01
1.370000000000000000e+02,1.168788572538889958e-01
1.380000000000000000e+02,1.168787730346769888e-01
1.390000000000000000e+02,1.168786846921834877e-01
1.400000000000000000e+02,1.168785920617584906e-01
1.410000000000000000e+02,1.168784949736684925e-01
1.420000000000000000e+02,1.168783932532664882e-01
1.430000000000000000e+02,1.168782867202464992e-01
1.440000000000000000e+02,1.168781751888714887e-01
1.450000000000000000e+02,1.168780584681664986e-01
1.460000000000000000e+02,1.168779363611214955e-01
1.470000000000000000e+02,1.168778086649314985e-01
1.480000000000000000e+02,1.168776751711964879e-01
1.490000000000000000e+02,1.168775356650814945e-01
1.500000000000000000e+02,1.168773899255764886e-01
1.510000000000000000e+02,1.168772377257264877e-01
1.520000000000000000e+02,1.168770788317714943e-01
1.530000000000000000e+02,1.168769130033864984e-01
1.540000000000000000e+02,1.168767399938764884e-01
1.550000000000000000e+02,1.168765595491714909e-01
1.560000000000000000e+02,1.168763714082464988e-01
1.570000000000000000e+02,1.168761753034664869e-01
1.580000000000000000e+02,1.168759709593614887e-01
1.590000000000000000e+02,1.168757580930814971e-01
1.600000000000000000e+02,1.168755364147864989e-01
1.610000000000000000e+02,1.168753056263514972e-01
1.620000000000000000e+02,1.168750654218364965e-01
1.630000000000000000e+02,1.168748154878864881e-01
1.640000000000000000e+02,1.168745555023714966e-01
1.650000000000000000e+02,1.168742851349114931e-01
1.660000000000000000e+02,1.168740040473114916e-01
1.670000000000000000e+02,1.168737118921764906e-01
1.680000000000000000e+02,1.168734083133964874e-01
1.690000000000000000e+02,1.168730929465514878e-01
1.700000000000000000e+02,1.168727654172914965e-01
1.710000000000000000e+02,1.168724253421014880e-01
1.720000000000000000e+02,1.168720723289714963e-01
1.730000000000000000e+02,1.168717059754264959e-01
1.740000000000000000e+02,1.168713258693414858e-01
1.750000000000000000e+02,1.168709315896764994e-01
1.760000000000000000e+02,1.168705227044264938e-01
1.770000000000000000e+02,1.168700987714564876e-01
1.780000000000000000e+02,1.168696593392464927e-01
1.790000000000000000e+02,1.168692039447614961e-01
1.800000000000000000e+02,1.168687321143664914e-01
1.810000000000000000e+02,1.168682433646114904e-01
1.820000000000000000e+02,1.168677372001064863e-01
1.830000000000000000e+02,1.168672131143614901e-01
1.840000000000000000e+02,1.168666705905164888e-01
1.850000000000000000e+02,1.168661090988714901e-01
1.860000000000000000e+02,1.168655280981664990e-01
1.870000000000000000e+02,1.168649270367264903e-01
1.880000000000000000e+02,1.168643053494614892e-01
1.890000000000000000e+02,1.168636624592314932e-01
1.900000000000000000e+02,1.168629977780764884e-01
1.910000000000000000e+02,1.168623107041164982e-01
1.920000000000000000e+02,1.168616006229414861e-01
1.930000000000000000e+02,1.168608669088614938e-01
1.940000000000000000e+02,1.168601089217114891e-01
1.950000000000000000e+02,1.168593260083414936e-01
1.960000000000000000e+02,1.168585175039364987e-01
1.970000000000000000e+02,1.168576827288614894e-01
1.980000000000000000e+02,1.168568209900364974e-01
1.990000000000000000e+02,1.168559315821514899e-01
2.000000000000000000e+02,1.168550137840014963e-01
2.010000000000000000e+02,1.168540668605514976e-01
2.020000000000000000e+02,1.168530900647814924e-01
2.030000000000000000e+02,1.168520826332464929e-01
2.040000000000000000e+02,1.168510437882464975e-01
2.050000000000000000e+02,1.168499727397464966e-01
2.060000000000000000e+02,1.168488686808964866e-01
2.070000000000000000e+02,1.168477307902464901e-01
2.080000000000000000e+02,1.168465582336464942e-01
2.090000000000000000e+02,1.168453501595964894e-01
2.100000000000000000e+02,1.168441057016464946e-01
2.110000000000000000e+02,1.168428239804964880e-01
2.120000000000000000e+02,1.168415040993464882e-01
2.130000000000000000e+02,1.168401451460964885e-01
2.140000000000000000e+02,1.168387461952464929e-01
2.150000000000000000e+02,1.168373063026464931e-01
2.160000000000000000e+02,1.168358245086964925e-01
2.170000000000000000e+02,1.168342998410464989e-01
2.180000000000000000e+02,1.168327313083464963e-01
2.190000000000000000e+02,1.168311179035464858e-01
2.200000000000000000e+02,1.168294586067464974e-01
2.210000000000000000e+02,1.168277523788464889e-01
2.220000000000000000e+02,1.168259981648964996e-01
2.230000000000000000e+02,1.168241948969964972e-01
2.240000000000000000e+02,1.168223414877464922e-01
2.250000000000000000e+02,1.168204368337464882e-01
2.260000000000000000e+02,1.168184798186964884e-01
2.270000000000000000e+02,1.168164693070464916e-01
2.280000000000000000e+02,1.168144041471964878e-01
2.290000000000000000e+02,1.168122831743464984e-01
2.300000000000000000e+02,1.168101052031964987e-01
2.310000000000000000e+02,1.168078690324964863e-01
2.320000000000000000e+02,1.168055734491964953e-01
2.330000000000000000e+02,1.168032172196964980e-01
2.340000000000000000e+02,1.168007990944964908e-01
2.350000000000000000e+02,1.167983178125464871e-01
2.360000000000000000e+02,1.167957720924464871e-01
2.370000000000000000e+02,1.167931606370464920e-01
2.380000000000000000e+02,1.167904821378464991e-01
2.390000000000000000e+02,1.167877352660464940e-01
2.400000000000000000e+02,1.167849186774464892e-01
2.410000000000000000e+02,1.167820310168964926e-01
2.420000000000000000e+02,1.167790709096964974e-01
2.430000000000000000e+02,1.167760369661464959e-01
2.440000000000000000e+02,1.167729277854464981e-01
2.450000000000000000e+02,1.167697419459964858e-01
2.460000000000000000e+02,1.167664780117964873e-01
2.470000000000000000e+02,1.167631345380964886e-01
2.480000000000000000e+02,1.167597100596964865e-01
2.490000000000000000e+02,1.167562030973964965e-01
2.500000000000000000e+02,1.167526121639464870e-01
2.510000000000000000e+02,1.167489357523464888e-01
2.520000000000000000e+02,1.167451723422464893e-01
2.530000000000000000e+02,1.167413204057964893e-01
2.540000000000000000e+02,1.167373783958964989e-01
2.550000000000000000e+02,1.167333447528964979e-01
2.560000000000000000e+02,1.167292179105464955e-01
2.570000000000000000e+02,1.167249962847464878e-01
2.580000000000000000e+02,1.167206782795464914e-01
2.590000000000000000e+02,1.167162622926464915e-01
2.600000000000000000e+02,1.167117467026964894e-01
2.610000000000000000e+02,1.167071298776464899e-01
2.620000000000000000e+02,1.167024101822464882e-01
2.630000000000000000e+02,1.166975859629464929e-01
2.640000000000000000e+02,1.166926555564464923e-01
2.650000000000000000e+02,1.166876172973964898e-01
2.660000000000000000e+02,1.166824695034964915e-01
2.670000000000000000e+02,1.166772104836464874e-01
2.680000000000000000e+02,1.166718385455964985e-01
2.690000000000000000e+02,1.166663519810964972e-01
2.700000000000000000e+02,1.166607490742964937e-01
2.710000000000000000e+02,1.166550281094964892e-01
2.720000000000000000e+02,1.166491873569964893e-01
2.730000000000000000e+02,1.166432250806964943e-01
2.740000000000000000e+02,1.166371395450464948e-01
2.750000000000000000e+02,1.166309289990964948e-01
2.760000000000000000e+02,1.166245916870464888e-01
2.770000000000000000e+02,1.166181258577964897e-01
2.780000000000000000e+02,1.166115297459464906e-01
2.790000000000000000e+02,1.166048015825464912e-01
2.800000000000000000e+02,1.165979396047464867e-01
2.810000000000000000e+02,1.165909420370464938e-01
2.820000000000000000e+02,1.165838071016964961e-01
2.830000000000000000e+02,1.165765330280964934e-01
2.840000000000000000e+02,1.165691180342964955e-01
2.850000000000000000e+02,1.165615603375464993e-01
2.860000000000000000e+02,1.165538581637464988e-01
2.870000000000000000e+02,1.165460097298964964e-01
2.880000000000000000e+02,1.165380132534964974e-01
2.890000000000000000e+02,1.165298669609964866e-01
2.900000000000000000e+02,1.165215690682464972e-01
2.910000000000000000e+02,1.165131177933964868e-01
2.920000000000000000e+02,1.165045113682964956e-01
2.930000000000000000e+02,1.164957480154964892e-01
2.940000000000000000e+02,1.164868259611464979e-01
2.950000000000000000e+02,1.164777434464464995e-01
2.960000000000000000e+02,1.164684987052464898e-01
2.970000000000000000e+02,1.164590899762964898e-01
2.980000000000000000e+02,1.164495155142964977e-01
2.990000000000000000e+02,1.164397735678464885e-01
3.000000000000000000e+02,1.164298623918464948e-01
3.010000000000000000e+02,1.164197802586464936e-01
3.020000000000000000e+02,1.164095254366464965e-01
3.030000000000000000e+02,1.163990962021464876e-01
3.040000000000000000e+02,1.163884908491464865e-01
3.050000000000000000e+02,1.163777076651464903e-01
3.060000000000000000e+02,1.163667449466464915e-01
3.070000000000000000e+02,1.163556010131464868e-01
3.080000000000000000e+02,1.163442741791464868e-01
3.090000000000000000e+02,1.163327627691464888e-01
3.100000000000000000e+02,1.163210651316464866e-01
3.110000000000000000e+02,1.163091796121464988e-01
3.120000000000000000e+02,1.162971045671464948e-01
3.130000000000000000e+02,1.162848383766464933e-01
3.140000000000000000e+02,1.162723794191464904e-01
3.150000000000000000e+02,1.162597260856464976e-01
3.160000000000000000e+02,1.162468767916464973e-01
3.170000000000000000e+02,1.162338299536464920e-01
3.180000000000000000e+02,1.162205840011464875e-01
3.190000000000000000e+02,1.162071373871464974e-01
3.200000000000000000e+02,1.161934885626464964e-01
3.210000000000000000e+02,1.161796359931464989e-01
3.220000000000000000e+02,1.161655781726464998e-01
3.230000000000000000e+02,1.161513135941464880e-01
3.240000000000000000e+02,1.161368407656464957e-01
3.250000000000000000e+02,1.161221582236464933e-01
3.260000000000000000e+02,1.161072645056464986e-01
3.270000000000000000e+02,1.160921581646464917e-01
3.280000000000000000e+02,1.160768377821464886e-01
3.290000000000000000e+02,1.160613019406464969e-01
3.300000000000000000e+02,1.160455492386464893e-01
3.310000000000000000e+02,1.160295783036464912e-01
3.320000000000000000e+02,1.160133877666464919e-01
3.330000000000000000e+02,1.159969762751464906e-01
3.340000000000000000e+02,1.159803425036464997e-01
3.350000000000000000e+02,1.159634851261464872e-01
3.360000000000000000e+02,1.159464028341464920e-01
3.370000000000000000e+02,1.159290943511464972e-01
3.380000000000000000e+02,1.159115584001464971e-01
3.390000000000000000e+02,1.158937937221464903e-01
3.400000000000000000e+02,1.158757990901464890e-01
3.410000000000000000e+02,1.158575732776464945e-01
3.420000000000000000e+02,1.158391150751464926e-01
3.430000000000000000e+02,1.158204233046464943e-01
3.440000000000000000e+02,1.158014967891464880e-01
3.450000000000000000e+02,1.157823343686464890e-01
3.460000000000000000e+02,1.157629349146464953e-01
3.470000000000000000e+02,1.157432973021464973e-01
3.480000000000000000e+02,1.157234204221464918e-01
3.490000000000000000e+02,1.157033031941464979e-01
3.500000000000000000e+02,1.156829445371464898e-01
3.510000000000000000e+02,1.156623433871464962e-01
3.520000000000000000e+02,1.156414987136464984e-01
3.530000000000000000e+02,1.156204094846464969e-01
3.540000000000000000e+02,1.155990746851464912e-01
3.550000000000000000e+02,1.155774933326464970e-01
3.560000000000000000e+02,1.155556644446464887e-01
3.570000000000000000e+02,1.155335870551464916e-01
3.580000000000000000e+02,1.155112602281464923e-01
3.590000000000000000e+02,1.154886830286464966e-01
3.600000000000000000e+02,1.154658545376464895e-01
3.610000000000000000e+02,1.154427738656464975e-01
3.620000000000000000e+02,1.154194401251464885e-01
3.630000000000000000e+02,1.153958524446464934e-01
3.640000000000000000e+02,1.153720099801464893e-01
3.650000000000000000e+02,1.153479118841464895e-01
3.660000000000000000e+02,1.153235573251464863e-01
3.670000000000000000e+02,1.152989455031464966e-01
3.680000000000000000e+02,1.152740756156464957e-01
3.690000000000000000e+02,1.152489468756464908e-01
3.700000000000000000e+02,1.152235585266464940e-01
3.710000000000000000e+02,1.151979098096464899e-01
3.720000000000000000e+02,1.151719999801464889e-01
3.730000000000000000e+02,1.151458283231464874e-01
3.740000000000000000e+02,1.151193941211464955e-01
3.750000000000000000e+02,1.150926966711464938e-01
3.760000000000000000e+02,1.150657352981464959e-01
3.770000000000000000e+02,1.150385093266464986e-01
3.780000000000000000e+02,1.150110180946464916e-01
3.790000000000000000e+02,1.149832609651464943e-01
3.800000000000000000e+02,1.149552372971464897e-01
3.810000000000000000e+02,1.149269464626464926e-01
3.820000000000000000e+02,1.148983878631464894e-01
3.830000000000000000e+02,1.148695608956464970e-01
3.840000000000000000e+02,1.148404649701464941e-01
3.850000000000000000e+02,1.148110995251464955e-01
3.860000000000000000e+02,1.147814639946464904e-01
3.870000000000000000e+02,1.147515578256464996e-01
3.880000000000000000e+02,1.147213804921464880e-01
3.890000000000000000e+02,1.146909314641464950e-01
3.900000000000000000e+02,1.146602102236464887e-01
3.910000000000000000e+02,1.146292162786464869e-01
3.920000000000000000e+02,1.145979491351464957e-01
3.930000000000000000e+02,1.145664083111464920e-01
3.940000000000000000e+02,1.145345933476464989e-01
3.950000000000000000e+02,1.145025037791464889e-01
3.960000000000000000e+02,1.144701391531464940e-01
3.970000000000000000e+02,1.144374990441464901e-01
3.980000000000000000e+02,1.144045830206464887e-01
3.990000000000000000e+02,1.143713906631464994e-01
