# Time [s], Mass [Kg]
1.000000000000000000e+00,1.168803071421440076e-01
2.000000000000000000e+00,1.168803071421440076e-01
3.000000000000000000e+00,1.168803071421439937e-01
4.000000000000000000e+00,1.168803071421439937e-01
5.000000000000000000e+00,1.168803071421439660e-01
6.000000000000000000e+00,1.168803071421438966e-01
7.000000000000000000e+00,1.168803071421437439e-01
8.000000000000000000e+00,1.168803071421434248e-01
9.000000000000000000e+00,1.168803071421427725e-01
1.000000000000000000e+01,1.168803071421415235e-01
1.100000000000000000e+01,1.168803071421392337e-01
1.200000000000000000e+01,1.168803071421352091e-01
1.300000000000000000e+01,1.168803071421283535e-01
1.400000000000000000e+01,1.168803071421170708e-01
1.500000000000000000e+01,1.168803071420989742e-01
1.600000000000000000e+01,1.168803071420706774e-01
1.700000000000000000e+01,1.168803071420273926e-01
1.800000000000000000e+01,1.168803071419625556e-01
1.900000000000000000e+01,1.168803071418672151e-01
2.000000000000000000e+01,1.168803071417293810e-01
2.100000000000000000e+01,1.168803071415332323e-01
2.200000000000000000e+01,1.168803071412581607e-01
2.300000000000000000e+01,1.168803071408775207e-01
2.400000000000000000e+01,1.168803071403573673e-01
2.500000000000000000e+01,1.168803071396547905e-01
2.600000000000000000e+01,1.168803071387160830e-01
2.700000000000000000e+01,1.168803071374745761e-01
2.800000000000000000e+01,1.168803071358481965e-01
2.900000000000000000e+01,1.168803071337366772e-01
3.000000000000000000e+01,1.168803071310183656e-01
3.100000000000000000e+01,1.168803071275466565e-01
3.200000000000000000e+01,1.168803071231460239e-01
3.300000000000000000e+01,1.168803071176074959e-01
3.400000000000000000e+01,1.168803071106838259e-01
3.500000000000000000e+01,1.168803071020838025e-01
3.600000000000000000e+01,1.168803070914664205e-01
3.700000000000000000e+01,1.168803070784342479e-01
3.800000000000000000e+01,1.168803070625260426e-01
3.900000000000000000e+01,1.168803070432090363e-01
4.000000000000000000e+01,1.168803070198704691e-01
4.100000000000000000e+01,1.168803069918080972e-01
4.200000000000000000e+01,1.168803069582203952e-01
4.300000000000000000e+01,1.168803069181960363e-01
4.400000000000000000e+01,1.168803068707019721e-01
4.500000000000000000e+01,1.168803068145713858e-01
4.600000000000000000e+01,1.168803067484909253e-01
4.700000000000000000e+01,1.168803066709860894e-01
4.800000000000000000e+01,1.168803065804067537e-01
4.900000000000000000e+01,1.168803064749120157e-01
5.000000000000000000e+01,1.168803063524522096e-01
5.100000000000000000e+01,1.168803062107523355e-01
5.200000000000000000e+01,1.168803060472945465e-01
5.300000000000000000e+01,1.168803058592966099e-01
5.400000000000000000e+01,1.168803056436928250e-01
5.500000000000000000e+01,1.168803053971141370e-01
5.600000000000000000e+01,1.168803051158628648e-01
5.700000000000000000e+01,1.168803047958911906e-01
5.800000000000000000e+01,1.168803044327787477e-01
5.900000000000000000e+01,1.168803040217033934e-01
6.000000000000000000e+01,1.168803035574173949e-01
6.100000000000000000e+01,1.168803030342226018e-01
6.200000000000000000e+01,1.168803024459373202e-01
6.300000000000000000e+01,1.168803017858699445e-01
6.400000000000000000e+01,1.168803010467916043e-01
6.500000000000000000e+01,1.168803002208973069e-01
6.600000000000000000e+01,1.168802992997789447e-01
6.700000000000000000e+01,1.168802982743972069e-01
6.800000000000000000e+01,1.168802971350360043e-01
6.900000000000000000e+01,1.168802958712741036e-01
7.000000000000000000e+01,1.168802944719556508e-01
7.100000000000000000e+01,1.168802929251387540e-01
7.200000000000000000e+01,1.168802912180657017e-01
7.300000000000000000e+01,1.168802893371322094e-01
7.400000000000000000e+01,1.168802872678293969e-01
7.500000000000000000e+01,1.168802849947136041e-01
7.600000000000000000e+01,1.168802825013745550e-01
7.700000000000000000e+01,1.168802797703719087e-01
7.800000000000000000e+01,1.168802767832030493e-01
7.900000000000000000e+01,1.168802735202694593e-01
8.000000000000000000e+01,1.168802699608019469e-01
8.100000000000000000e+01,1.168802660828337087e-01
8.200000000000000000e+01,1.168802618631711587e-01
8.300000000000000000e+01,1.168802572773048054e-01
8.400000000000000000e+01,1.168802522993837578e-01
8.500000000000000000e+01,1.168802469021879009e-01
8.600000000000000000e+01,1.168802410570287525e-01
8.700000000000000000e+01,1.168802347337248582e-01
8.800000000000000000e+01,1.168802279005745487e-01
8.900000000000000000e+01,1.168802205242459591e-01
9.000000000000000000e+01,1.168802125697548516e-01
9.100000000000000000e+01,1.168802040004396497e-01
9.200000000000000000e+01,1.168801947778424083e-01
9.300000000000000000e+01,1.168801848616855543e-01
9.400000000000000000e+01,1.168801742098450475e-01
9.500000000000000000e+01,1.168801627782085489e-01
9.600000000000000000e+01,1.168801505206700508e-01
9.700000000000000000e+01,1.168801373891180523e-01
9.800000000000000000e+01,1.168801233332625589e-01
9.900000000000000000e+01,1.168801083006360542e-01
1.000000000000000000e+02,1.168800922365885592e-01
1.010000000000000000e+02,1.168800750840965491e-01
1.020000000000000000e+02,1.168800567837670473e-01
1.030000000000000000e+02,1.168800372738360571e-01
1.040000000000000000e+02,1.168800164899590488e-01
1.050000000000000000e+02,1.168799943652230472e-01
1.060000000000000000e+02,1.168799708301500595e-01
1.070000000000000000e+02,1.168799458124755580e-01
1.080000000000000000e+02,1.168799192371580559e-01
1.090000000000000000e+02,1.168798910263800506e-01
1.100000000000000000e+02,1.168798610992805576e-01
1.110000000000000000e+02,1.168798293720065551e-01
1.120000000000000000e+02,1.168797957577515506e-01
1.130000000000000000e+02,1.168797601664245539e-01
1.140000000000000000e+02,1.168797225047160521e-01
1.150000000000000000e+02,1.168796826761475532e-01
1.160000000000000000e+02,1.168796405807135536e-01
1.170000000000000000e+02,1.168795961149540485e-01
1.180000000000000000e+02,1.168795491720100582e-01
1.190000000000000000e+02,1.168794996412365478e-01
1.200000000000000000e+02,1.168794474082880536e-01
1.210000000000000000e+02,1.168793923551880581e-01
1.220000000000000000e+02,1.168793343599250495e-01
1.230000000000000000e+02,1.168792732965310555e-01
1.240000000000000000e+02,1.168792090351435525e-01
1.250000000000000000e+02,1.168791414415220470e-01
1.260000000000000000e+02,1.168790703772095568e-01
1.270000000000000000e+02,1.168789956996680590e-01
1.280000000000000000e+02,1.168789172616810507e-01
1.290000000000000000e+02,1.168788349115385539e-01
1.300000000000000000e+02,1.168787484931925469e-01
1.310000000000000000e+02,1.168786578456195574e-01
1.320000000000000000e+02,1.168785628030160478e-01
1.330000000000000000e+02,1.168784631949640468e-01
1.340000000000000000e+02,1.168783588457490558e-01
1.350000000000000000e+02,1.168782495745740585e-01
1.360000000000000000e+02,1.168781351957590559e-01
1.370000000000000000e+02,1.168780155180340480e-01
1.380000000000000000e+02,1.168778903447440509e-01
1.390000000000000000e+02,1.168777594740190579e-01
1.400000000000000000e+02,1.168776226979390542e-01
1.410000000000000000e+02,1.168774798028940493e-01
1.420000000000000000e+02,1.168773305698840581e-01
1.430000000000000000e+02,1.168771747734990568e-01
1.440000000000000000e+02,1.168770121823040492e-01
1.450000000000000000e+02,1.168768425591790588e-01
1.460000000000000000e+02,1.168766656602340526e-01
1.470000000000000000e+02,1.168764812352090510e-01
1.480000000000000000e+02,1.168762890278390587e-01
1.490000000000000000e+02,1.168760887747090499e-01
1.500000000000000000e+02,1.168758802056940466e-01
1.510000000000000000e+02,1.168756630443390510e-01
1.520000000000000000e+02,1.168754370067090487e-01
1.530000000000000000e+02,1.168752018018040517e-01
1.540000000000000000e+02,1.168749571319040587e-01
1.550000000000000000e+02,1.168747026912240472e-01
1.560000000000000000e+02,1.168744381665540594e-01
1.570000000000000000e+02,1.168741632378340473e-01
1.580000000000000000e+02,1.168738775765140597e-01
1.590000000000000000e+02,1.168735808462490477e-01
1.600000000000000000e+02,1.168732727035090568e-01
1.610000000000000000e+02,1.168729527958740494e-01
1.620000000000000000e+02,1.168726207627490549e-01
1.630000000000000000e+02,1.168722762359940548e-01
1.640000000000000000e+02,1.168719188381390495e-01
1.650000000000000000e+02,1.168715481831540531e-01
1.660000000000000000e+02,1.168711638771340600e-01
1.670000000000000000e+02,1.168707655165040493e-01
1.680000000000000000e+02,1.168703526887340527e-01
1.690000000000000000e+02,1.168699249729690526e-01
1.700000000000000000e+02,1.168694819379390570e-01
1.710000000000000000e+02,1.168690231430640492e-01
1.720000000000000000e+02,1.168685481394140524e-01
1.730000000000000000e+02,1.168680564671740474e-01
1.740000000000000000e+02,1.168675476568190597e-01
1.750000000000000000e+02,1.168670212301440581e-01
1.760000000000000000e+02,1.168664766976540564e-01
1.770000000000000000e+02,1.168659135597440585e-01
1.780000000000000000e+02,1.168653313077540473e-01
1.790000000000000000e+02,1.168647294212640519e-01
1.800000000000000000e+02,1.168641073693690580e-01
1.810000000000000000e+02,1.168634646117990561e-01
1.820000000000000000e+02,1.168628005962290550e-01
1.830000000000000000e+02,1.168621147594540582e-01
1.840000000000000000e+02,1.168614065284190595e-01
1.850000000000000000e+02,1.168606753171140544e-01
1.860000000000000000e+02,1.168599205283240572e-01
1.870000000000000000e+02,1.168591415551690493e-01
1.880000000000000000e+02,1.168583377773390469e-01
1.890000000000000000e+02,1.168575085629490473e-01
1.900000000000000000e+02,1.168566532701740546e-01
1.910000000000000000e+02,1.168557712433940521e-01
1.920000000000000000e+02,1.168548618150590523e-01
1.930000000000000000e+02,1.168539243073340589e-01
1.940000000000000000e+02,1.168529580281640473e-01
1.950000000000000000e+02,1.168519622732540481e-01
1.960000000000000000e+02,1.168509363277540486e-01
1.970000000000000000e+02,1.168498794624540510e-01
1.980000000000000000e+02,1.168487909355540588e-01
1.990000000000000000e+02,1.168476699942540553e-01
2.000000000000000000e+02,1.168465158704040524e-01
2.010000000000000000e+02,1.168453277829540476e-01
2.020000000000000000e+02,1.168441049404040505e-01
2.030000000000000000e+02,1.168428465354540563e-01
2.040000000000000000e+02,1.168415517477040533e-01
2.050000000000000000e+02,1.168402197461540504e-01
2.060000000000000000e+02,1.168388496837040602e-01
2.070000000000000000e+02,1.168374407000040555e-01
2.080000000000000000e+02,1.168359919238040473e-01
2.090000000000000000e+02,1.168345024674540544e-01
2.100000000000000000e+02,1.168329714299040506e-01
2.110000000000000000e+02,1.168313978991040586e-01
2.120000000000000000e+02,1.168297809467040566e-01
2.130000000000000000e+02,1.168281196307540543e-01
2.140000000000000000e+02,1.168264129979040555e-01
2.150000000000000000e+02,1.168246600773040489e-01
2.160000000000000000e+02,1.168228598845040545e-01
2.170000000000000000e+02,1.168210114247540538e-01
2.180000000000000000e+02,1.168191136855040585e-01
2.190000000000000000e+02,1.168171656405040532e-01
2.200000000000000000e+02,1.168151662533040563e-01
2.210000000000000000e+02,1.168131144697040491e-01
2.220000000000000000e+02,1.168110092217040513e-01
2.230000000000000000e+02,1.168088494310040582e-01
2.240000000000000000e+02,1.168066340015040533e-01
2.250000000000000000e+02,1.168043618234040487e-01
2.260000000000000000e+02,1.168020317768040522e-01
2.270000000000000000e+02,1.167996427243540580e-01
2.280000000000000000e+02,1.167971935151040502e-01
2.290000000000000000e+02,1.167946829877540560e-01
2.300000000000000000e+02,1.167921099623040471e-01
2.310000000000000000e+02,1.167894732454040491e-01
2.320000000000000000e+02,1.167867716350040469e-01
2.330000000000000000e+02,1.167840039104540567e-01
2.340000000000000000e+02,1.167811688379540580e-01
2.350000000000000000e+02,1.167782651753540568e-01
2.360000000000000000e+02,1.167752916622040588e-01
2.370000000000000000e+02,1.167722470252040567e-01
2.380000000000000000e+02,1.167691299829040491e-01
2.390000000000000000e+02,1.167659392357040526e-01
2.400000000000000000e+02,1.167626734715040554e-01
2.410000000000000000e+02,1.167593313706540570e-01
2.420000000000000000e+02,1.167559115963040517e-01
2.430000000000000000e+02,1.167524127993540550e-01
2.440000000000000000e+02,1.167488336230540491e-01
2.450000000000000000e+02,1.167451726921540506e-01
2.460000000000000000e+02,1.167414286199040530e-01
2.470000000000000000e+02,1.167376000143040549e-01
2.480000000000000000e+02,1.167336854651540579e-01
2.490000000000000000e+02,1.167296835513040587e-01
2.500000000000000000e+02,1.167255928470040532e-01
2.510000000000000000e+02,1.167214119091040531e-01
2.520000000000000000e+02,1.167171392841540589e-01
2.530000000000000000e+02,1.167127735145540579e-01
2.540000000000000000e+02,1.167083131257540540e-01
2.550000000000000000e+02,1.167037566336040499e-01
2.560000000000000000e+02,1.166991025507040508e-01
2.570000000000000000e+02,1.166943493741540577e-01
2.580000000000000000e+02,1.166894955921040505e-01
2.590000000000000000e+02,1.166845396895040549e-01
2.600000000000000000e+02,1.166794801344040594e-01
2.610000000000000000e+02,1.166743153869040511e-01
2.620000000000000000e+02,1.166690439071540603e-01
2.630000000000000000e+02,1.166636641390540602e-01
2.640000000000000000e+02,1.166581745194540526e-01
2.650000000000000000e+02,1.166525734862040586e-01
2.660000000000000000e+02,1.166468594620040516e-01
2.670000000000000000e+02,1.166410308634040494e-01
2.680000000000000000e+02,1.166350861086540569e-01
2.690000000000000000e+02,1.166290236017040599e-01
2.700000000000000000e+02,1.166228417413040508e-01
2.710000000000000000e+02,1.166165389290040599e-01
2.720000000000000000e+02,1.166101135539040490e-01
2.730000000000000000e+02,1.166035640009040475e-01
2.740000000000000000e+02,1.165968886577540553e-01
2.750000000000000000e+02,1.165900858980540578e-01
2.760000000000000000e+02,1.165831540925540560e-01
2.770000000000000000e+02,1.165760916188540580e-01
2.780000000000000000e+02,1.165688968413540472e-01
2.790000000000000000e+02,1.165615681225040529e-01
2.800000000000000000e+02,1.165541038327540524e-01
2.810000000000000000e+02,1.165465023308540488e-01
2.820000000000000000e+02,1.165387619746040548e-01
2.830000000000000000e+02,1.165308811305040548e-01
2.840000000000000000e+02,1.165228581543540504e-01
2.850000000000000000e+02,1.165146914021040481e-01
2.860000000000000000e+02,1.165063792396040521e-01
2.870000000000000000e+02,1.164979200242540480e-01
2.880000000000000000e+02,1.164893121145540583e-01
2.890000000000000000e+02,1.164805538787540562e-01
2.900000000000000000e+02,1.164716436746540545e-01
2.910000000000000000e+02,1.164625798626540559e-01
2.920000000000000000e+02,1.164533608173540513e-01
2.930000000000000000e+02,1.164439849039040492e-01
2.940000000000000000e+02,1.164344504911040551e-01
2.950000000000000000e+02,1.164247559629540546e-01
2.960000000000000000e+02,1.164148996955540472e-01
2.970000000000000000e+02,1.164048800694040542e-01
2.980000000000000000e+02,1.163946954809040590e-01
2.990000000000000000e+02,1.163843443199040484e-01
3.000000000000000000e+02,1.163738249819040588e-01
3.010000000000000000e+02,1.163631358784040504e-01
3.020000000000000000e+02,1.163522754164040551e-01
3.030000000000000000e+02,1.163412420104040501e-01
3.040000000000000000e+02,1.163300340904040581e-01
3.050000000000000000e+02,1.163186500794040484e-01
3.060000000000000000e+02,1.163070884084040496e-01
3.070000000000000000e+02,1.162953475289040528e-01
3.080000000000000000e+02,1.162834258869040599e-01
3.090000000000000000e+02,1.162713219369040513e-01
3.100000000000000000e+02,1.162590341549040590e-01
3.110000000000000000e+02,1.162465610124040483e-01
3.120000000000000000e+02,1.162339009899040487e-01
3.130000000000000000e+02,1.162210525899040475e-01
3.140000000000000000e+02,1.162080143114040537e-01
3.150000000000000000e+02,1.161947846634040493e-01
3.160000000000000000e+02,1.161813621769040572e-01
3.170000000000000000e+02,1.161677453819040529e-01
3.180000000000000000e+02,1.161539328189040571e-01
3.190000000000000000e+02,1.161399230499040591e-01
3.200000000000000000e+02,1.161257146324040507e-01
3.210000000000000000e+02,1.161113061349040576e-01
3.220000000000000000e+02,1.160966961529040498e-01
3.230000000000000000e+02,1.160818832779040577e-01
3.240000000000000000e+02,1.160668661129040519e-01
3.250000000000000000e+02,1.160516432879040577e-01
3.260000000000000000e+02,1.160362134304040588e-01
3.270000000000000000e+02,1.160205751799040508e-01
3.280000000000000000e+02,1.160047272024040538e-01
3.290000000000000000e+02,1.159886681614040599e-01
3.300000000000000000e+02,1.159723967339040540e-01
3.310000000000000000e+02,1.159559116229040565e-01
3.320000000000000000e+02,1.159392115309040572e-01
3.330000000000000000e+02,1.159222951749040581e-01
3.340000000000000000e+02,1.159051612954040550e-01
3.350000000000000000e+02,1.158878086294040516e-01
3.360000000000000000e+02,1.158702359279040472e-01
3.370000000000000000e+02,1.158524419709040520e-01
3.380000000000000000e+02,1.158344255359040481e-01
3.390000000000000000e+02,1.158161854134040492e-01
3.400000000000000000e+02,1.157977204234040547e-01
3.410000000000000000e+02,1.157790293844040558e-01
3.420000000000000000e+02,1.157601111279040473e-01
3.430000000000000000e+02,1.157409645139040599e-01
3.440000000000000000e+02,1.157215884004040574e-01
3.450000000000000000e+02,1.157019816594040545e-01
3.460000000000000000e+02,1.156821431914040466e-01
3.470000000000000000e+02,1.156620718964040534e-01
3.480000000000000000e+02,1.156417666884040490e-01
3.490000000000000000e+02,1.156212265074040568e-01
3.500000000000000000e+02,1.156004502894040498e-01
3.510000000000000000e+02,1.155794369844040520e-01
3.520000000000000000e+02,1.155581855724040485e-01
3.530000000000000000e+02,1.155366950304040491e-01
3.540000000000000000e+02,1.155149643494040590e-01
3.550000000000000000e+02,1.154929925499040555e-01
3.560000000000000000e+02,1.154707786499040573e-01
3.570000000000000000e+02,1.154483216804040591e-01
3.580000000000000000e+02,1.154256207014040525e-01
3.590000000000000000e+02,1.154026747704040567e-01
3.600000000000000000e+02,1.153794829584040560e-01
3.610000000000000000e+02,1.153560443644040534e-01
3.620000000000000000e+02,1.153323580859040576e-01
3.630000000000000000e+02,1.153084232344040588e-01
3.640000000000000000e+02,1.152842389469040524e-01
3.650000000000000000e+02,1.152598043554040469e-01
3.660000000000000000e+02,1.152351186054040577e-01
3.670000000000000000e+02,1.152101808719040582e-01
3.680000000000000000e+02,1.151849903254040519e-01
3.690000000000000000e+02,1.151595461494040462e-01
3.700000000000000000e+02,1.151338475564040592e-01
3.710000000000000000e+02,1.151078937549040587e-01
3.720000000000000000e+02,1.150816839664040581e-01
3.730000000000000000e+02,1.150552174404040479e-01
3.740000000000000000e+02,1.150284934224040517e-01
3.750000000000000000e+02,1.150015111699040499e-01
3.760000000000000000e+02,1.149742699679040525e-01
3.770000000000000000e+02,1.149467690999040476e-01
3.780000000000000000e+02,1.149190078609040599e-01
3.790000000000000000e+02,1.148909855709040473e-01
3.800000000000000000e+02,1.148627015434040555e-01
3.810000000000000000e+02,1.148341551044040482e-01
3.820000000000000000e+02,1.148053456089040553e-01
3.830000000000000000e+02,1.147762724059040590e-01
3.840000000000000000e+02,1.147469348574040593e-01
3.850000000000000000e+02,1.147173323524040556e-01
3.860000000000000000e+02,1.146874642749040468e-01
3.870000000000000000e+02,1.146573300219040498e-01
3.880000000000000000e+02,1.146269290159040583e-01
3.890000000000000000e+02,1.145962606754040575e-01
3.900000000000000000e+02,1.145653244309040586e-01
3.910000000000000000e+02,1.145341197379040471e-01
3.920000000000000000e+02,1.145026460504040555e-01
3.930000000000000000e+02,1.144709028339040563e-01
3.940000000000000000e+02,1.144388895769040543e-01
3.950000000000000000e+02,1.144066057619040483e-01
3.960000000000000000e+02,1.143740508834040492e-01
3.970000000000000000e+02,1.143412244629040536e-01
3.980000000000000000e+02,1.143081260169040575e-01
3.990000000000000000e+02,1.142747550734040524e-01
